L,0
R,0.8882685245174332
tau,gamma
0.00031622776601683794,2.0261895422220535e-15
0.0003257954268059452,4.9132966983286824e-15
0.0003356525629125699,1.1640932434055686e-14
0.0003458079325861202,2.694799855498031e-14
0.0003562705590620961,6.095253302914218e-14
0.00036704973857940124,1.3470587017748788e-13
0.00037815504864022377,2.9088037602150685e-13
0.0003895963565198278,6.137334447762008e-13
0.0004013838280338108,1.265283373494572e-12
0.00041352793657061903,2.5488521703457443e-12
0.00042603947239735167,5.017157504154722e-12
0.00043892955224711117,9.650191176603417e-12
0.0004522096291964309,1.8138015871545145e-11
0.00046589150284154663,3.331439764118121e-11
0.000479987329782556,5.979675150681908e-11
0.0004945096344247876,1.0489256444257556e-10
0.0005094713201069679,1.7982697758079602e-10
0.0005248856805660765,3.0132399791983673e-10
0.0005407664117490826,4.93528208393939e-10
0.0005571276239820482,7.90180197287741e-10
0.000573983854507415,1.2368575246650847e-09
0.0005913500804006177,1.892972371394103e-09
0.0006092417318774946,2.8330962722590334e-09
0.0006276747060043198,4.147091776344859e-09
0.0006466653808226475,5.938508563050756e-09
0.0006662306299015053,8.320785609314456e-09
0.0006863878373298735,1.141101796929404e-08
0.0007071549131627765,1.532139810993876e-08
0.0007285503093346991,2.0148893119545674e-08
0.0007505930360544725,2.596419660799632e-08
0.0007733026786962036,3.280139262890886e-08
0.0007966994152012442,4.064997331596052e-08
0.000820804034006665,4.945076798905397e-08
0.0008456379525161752,5.9096928999208405e-08
0.0008712232361298838,6.944041584304267e-08
0.0008975826178498154,8.030354286013632e-08
0.0009247395184786131,9.149428606546608e-08
0.0009527180674293558,1.028233768173538e-07
0.0009815431241649891,1.1412090187231019e-07
0.001011240300286428,1.2525025387262843e-07
0.00104183598228894,1.361177982913205e-07
0.0010733573550070338,1.466774092373345e-07
0.0011058324257687008,1.569298873374667e-07
0.0011392900492804441,1.6691801890068817e-07
0.0011737599532652201,1.767185316014678e-07
0.0012092727648760843,1.8643239761629508e-07
0.0012458600379089788,1.9617486393094014e-07
0.0012835542808388761,2.0606634035445203e-07
0.0013223889857041644,2.1622495225584914e-07
0.0013623986578649432,2.267612497912349e-07
0.001403618846661689,2.3777530203454603e-07
0.0014460861770014986,2.49356199789353e-07
0.0014898383819000102,2.6158383032527035e-07
0.0015349143360078898,2.7453265227316e-07
0.001581354090151678,2.882770780820996e-07
0.0016291989069197068,3.0289796369628047e-07
0.0016784912973246743,3.1848961826391464e-07
0.0017292750585754684,3.3516669671259207e-07
0.0017815953129918145,3.530703505672017e-07
0.0018354985480962933,3.723731241439679e-07
0.0018910326579193667,3.932823409942456e-07
0.0019482469855541295,4.1604218870915256e-07
0.0020071923669985623,4.4093548049314104e-07
0.0020679211763242594,4.682873984066657e-07
0.0021304873722117787,4.984760776131516e-07
0.002194946545893935,5.31960389103261e-07
0.002261355970549636,5.693477948933378e-07
0.002329774652192188,6.115538078523815e-07
0.002400263382097231,6.601689109215773e-07
0.002472884790816916,7.182890020133038e-07
0.0025477034038283333,7.923615051450012e-07
0.002624785698865596,8.962045253517988e-07
0.00270420016498654,1.0595534710543953e-06
0.0027860173634265454,1.3457780648326928e-06
0.0028703099902935036,1.8876360034668418e-06
0.0029571529411596582,2.957439830096569e-06
0.003046623377607734,5.100853755256603e-06
0.0031388007957904376,9.384580883293232e-06
0.0032337670970642605,1.7841132266891424e-05
0.003331606660760383,3.424280416971487e-05
0.0034324064191572777,6.54054748104344e-05
0.0035362559347216467,0.00012331190989576293
0.0036432474796863693,0.00022844939965327522
0.003753476118036091,0.00041486346029756505
0.0038670397899733372,0.0007375093789773165
0.003984039398940235,0.0012824899244959084
0.00410457890127309,0.0021806357050569614
0.004228765398569525,0.003624537585362313
0.004356709232850266,0.005888505350212755
0.004488524084600081,0.009349961436901519
0.004624327073775,0.014509508309024855
0.004764238863865586,0.022005463819479057
0.004908383769108734,0.03261730473216248
0.005056889864943131,0.04725159063424443
0.005209889101806705,0.06690404066242582
0.005367517422377078,0.09259296998474965
0.0055299148823591176,0.12526256288389928
0.005697225774927069,0.1656594320452763
0.005869598758931771,0.21419208630823314
0.006047186990986751,0.2707892850065883
0.006230148261550775,0.33477836912390996
0.0064186451351276215,0.40480696048630055
0.006612845094707664,0.4788296046931923
0.006812920690579615,0.554174398909379
0.007019049693644721,0.6276938362104859
0.0072314152533695004,0.695990613364975
0.007450206060517447,0.7556955279253469
0.007675616514804332,0.803763777945522
0.007907846897625966,0.8377505878177018
0.008147103550011928,0.8560286682255644
0.008393599055963468,0.857918568854045
0.008647552431338343,0.8437168467159152
0.008909189318450464,0.8146232353479108
0.00917874218655735,0.7725832314668934
0.009456450538413387,0.720073665599951
0.00974256112307246,0.6598639829817841
0.01003732815512916,0.5947847686099011
0.010341013540593124,0.5275286344276595
0.010653887109597478,0.46049910155850926
0.0109762268561479,0.3957130426381139
0.01130831918512549,0.3347537300287293
0.01165045916676289,0.27876586720371455
0.012002950798819639,0.22848148177802113
0.01236610727668989,0.18426571968731764
0.012740251271682348,0.1461734160156013
0.01312571521771978,0.11400977019973502
0.01352284160671271,0.08739070317032686
0.01393198329286991,0.06580009459946125
0.01435350380621596,0.048642040757051454
0.014787777675594416,0.03528673849031479
0.015235190761443706,0.025108873583960162
0.015696140598641353,0.017517703881533876
0.016171036749721087,0.011978485490343357
0.016660301168776814,0.00802547271762029
0.01716436857637675,0.005267324927706239
0.017683686845820695,0.0033862512859085207
0.018218717401083842,0.002132523377264231
0.018769935626800606,0.0013160499533126206
0.019337831290652745,0.0007965602052509362
0.01992290897853706,0.0004736454138207928
0.02052568854289939,0.00027754274635434316
0.021146705564633255,0.00016118184863709952
0.021786511828953414,9.370644346356983e-05
0.022445675815667348,5.545579286164745e-05
0.023124783204280224,3.424857651830176e-05
0.023824437394381993,2.2743021793855368e-05
0.02454526004177924,1.6632920251685123e-05
0.025287891610847935,1.345925725691867e-05
0.026052991943598055,1.1854305017538533e-05
0.026841240845955423,1.1076701127623363e-05
0.027653338691782024,1.0734633351390545e-05
0.02849000704517128,1.0626126930521167e-05
0.02935198930157114,1.0649667233361013e-05
0.03024005134830484,1.0755645355707087e-05
0.031154982245076148,1.0920733271961966e-05
0.032097594925063526,1.1134746100148115e-05
0.0330687269172265,1.1394123496333287e-05
0.03406924109046583,1.1698864873769778e-05
0.035100026420298434,1.205130129489499e-05
0.036161998778728964,1.2455960625013907e-05
0.037256101748019084,1.2920289264068143e-05
0.03838330745907778,1.3456327233415937e-05
0.039544617455218076,1.4083719760280626e-05
0.040741063582046814,1.4834778378641355e-05
0.041973708904278643,1.5762752610579166e-05
0.043243648650289075,1.695510762407758e-05
0.04455201118524525,1.8554486251246776e-05
0.04589995901367928,2.0791215185187084e-05
0.04728868981239551,2.403271887483991e-05
0.048719437494628565,2.885701060742079e-05
0.05019347330639818,3.615945606176297e-05
0.05171210695603525,4.730409046321845e-05
0.05327668777788204,6.433267102426628e-05
0.05488860593120073,9.024602627226316e-05
0.05654929363535618,0.0001293726851227772
0.05826022644236947,0.00018783864822011188
0.06002292454797317,0.00027414868041544604
0.06183895414233406,0.00039988244683456176
0.06370992880164184,0.0005804964286725252
0.06563751092180212,0.0008362024819126699
0.06762341319550604,0.001192863441990374
0.06966940013398946,0.0016828030873548496
0.07177728963483458,0.002345371788122464
0.0739489545972056,0.00322704416192578
0.07618632458595442,0.00438076141667007
0.07849138754607547,0.005864187236258848
0.08086619156903166,0.007736548070717133
0.0833128467125217,0.010053806164569693
0.0858335268753062,0.012862091920391028
0.08843047172875704,0.01618961107789651
0.09110598870684694,0.020037624233249753
0.09386245505634813,0.02437151853565308
0.09670231994906024,0.029113366013533815
0.09962810665794483,0.034137579346254825
0.10264241479910112,0.0392712258111209
0.10574792264157308,0.04430017082928384
0.10894738948704122,0.04898148897315861
0.11224365812151421,0.053061585381800384
0.115639657341197,0.05629838312930451
0.11913840455478059,0.05848497835605566
0.12274300846446674,0.05947157682308189
0.12645667182810702,0.059182478906595185
0.1302826943049137,0.0576254408952392
0.13422447538726828,0.05489183653727974
0.1382855174212334,0.05114747214177237
0.14246942871845358,0.04661538477144085
0.14677992676220705,0.041553175479936734
0.1512208415104586,0.03622815787271975
0.15579611879884947,0.030893714159843277
0.16050982384664572,0.02576976603254942
0.16536614486876083,0.021029333438789752
0.17036939679706378,0.016791999251064497
0.17552402511427612,0.013123969424591195
0.18083460980386573,0.01004352342088444
0.18630586941944874,0.007530113730467972
0.191942665277312,0.005535225772430921
0.19775000577578267,0.003993295652532561
0.20373305084528473,0.002831394065524905
0.20989711653303306,0.0019768924546969004
0.21624767972643985,0.0013628183275132494
0.22279038301943255,0.0009310005100599822
0.22953103972600333,0.0006333636743989926
0.23647563904544633,0.0004318534177437911
0.2436303513838746,0.00029748305892654325
0.25100153383673934,0.00020892806199246296
0.25859573583722933,0.0001509912192542166
0.2664197049755641,0.000113152024706858
0.27448039299435284,8.831722845739615e-05
0.28278496196534886,7.181627053629838e-05
0.29134079065308366,6.063697253488805e-05
0.3001554810710358,5.287027945881564e-05
0.3092368652361634,4.732246485858212e-05
0.3185930121277967,4.325325558286941e-05
0.328232234857076,4.0203930775374616e-05
0.3381630980533074,3.788710475904577e-05
0.34839442547379557,3.611745969083616e-05
0.3589353078439152,3.4769068137163384e-05
0.3697951109343925,3.374978828884177e-05
0.3809834838829662,3.2986603876420445e-05
0.3925103677678255,3.241799421736859e-05
0.40438600444044565,3.199078401699446e-05
0.4166209456256632,3.1659731126577625e-05
0.42922606229707916,3.1388588943005026e-05
0.4422125543361243,3.1151681848181094e-05
0.45559196048336176,3.093525081127001e-05
0.4693761685908721,3.073801472038881e-05
0.48357742618483474,3.057057935847285e-05
0.4982083513476799,3.045352405257638e-05
0.5132819439294938,3.0414208605867566e-05
0.5288115970986266,3.0482560441918233e-05
0.5448111092417707,3.0686300547415674e-05
0.5612946962240882,3.104621250298694e-05
0.5782770040202713,3.157211495083174e-05
0.5957731217277612,3.226013767237894e-05
0.6137985949736976,3.309172076242759e-05
0.632369439727496,3.4034480106293534e-05
0.6515021565313341,3.5044762683122046e-05
0.6712137451611946,3.6071420541593696e-05
0.6915217197314824,3.7060130110927546e-05
0.7124441242566392,3.79575223688144e-05
0.7339995486835922,3.871448545594256e-05
0.7562071454092661,3.928823335703118e-05
0.7790866462978432,3.9643048169640666e-05
0.8026583802128976,3.974992504452658e-05
0.8269432910799676,3.958560133314904e-05
0.851962956495622,3.913157372023e-05
0.8777396068995623,3.8373668568464486e-05
0.904296145326781,3.730253940901209e-05
0.9316561677573327,3.5915167455279444e-05
0.959843984081809,3.4217110181153746e-05
0.9888846397011232,3.2224963907795624e-05
1.0188039377798224,2.9968352859375604e-05
1.0496284621726786,2.7490772964072065e-05
1.0813856010449363,2.4848804948362553e-05
1.1141035712072147,2.21095254759461e-05
1.147811443186668,1.9346311931892538e-05
1.182539167056687,1.6633568032001334e-05
1.218317599048106,1.4041116671020994e-05
1.2551785289655366,1.1629066886708779e-05
1.2931547084331976,9.443858142037753e-06
1.3322798799953526,7.5159514352288774e-06
1.3725888070971866,5.859334434917994e-06
1.4141173049727718,4.472707264088501e-06
1.4569022724675795,3.3419775594564855e-06
1.5009817248237893,2.443555949656767e-06
1.5463948274575363,1.7479158547556577e-06
1.5931819307581239,1.2229488895363893e-06
1.6413846059400925,8.367768792308251e-07
1.6910456819800161,5.598356285855763e-07
1.7422092836708554,3.6619035921827076e-07
1.794920870827656,2.3415495294191684e-07
1.8492272786794375,1.463563741355247e-07
1.9051767594831799,8.941279212914249e-08
1.9628190253968414,5.33875998399285e-08
2.022205292649551,3.115381094584852e-08
2.0833883270481772,1.776613499678307e-08
2.1464224908607292,9.900787323074205e-09
2.2113637911182553,5.391729146095168e-09
2.278269929378132,2.869172659538473e-09
2.3472003529929664,1.4919219668595764e-09
2.4182163079306926,7.58033479309274e-10
2.491380893192751,3.763369320134743e-10
2.5667591168787194,1.8256009721237295e-10
2.644417953947241,8.653080244560409e-11
2.724426405724515,4.007444371801988e-11
2.8068555612132555,1.813396819875218e-11
2.8917786602566133,8.017592556410672e-12
2.9792711586131375,3.463526825988252e-12
3.069410795000612,1.4618896836576725e-12
3.1622776601683795,6.028794285499208e-13
