L,0
R,0.8651435263831736
tau,gamma
0.00031622776601683794,1.0769797398846783e-14
0.0003257954268059452,2.611561657947836e-14
0.0003356525629125699,6.187494949397286e-14
0.0003458079325861202,1.432363876535604e-13
0.0003562705590620961,3.239800814482875e-13
0.00036704973857940124,7.159995070181211e-13
0.00037815504864022377,1.5461093461216338e-12
0.0003895963565198278,3.2621585968258425e-12
0.0004013838280338108,6.72531270101727e-12
0.00041352793657061903,1.3547794821432104e-11
0.00042603947239735167,2.6667410060479977e-11
0.00043892955224711117,5.129298733783664e-11
0.0004522096291964309,9.640745640268982e-11
0.00046589150284154663,1.7707259097354477e-10
0.000479987329782556,3.1783023575968303e-10
0.0004945096344247876,5.575197026916889e-10
0.0005094713201069679,9.558018104813647e-10
0.0005248856805660765,1.6015618747046946e-09
0.0005407664117490826,2.6231214199028452e-09
0.0005571276239820482,4.199796724058259e-09
0.000573983854507415,6.573803069933072e-09
0.0005913500804006177,1.0060861896982887e-08
0.0006092417318774946,1.5057226004296048e-08
0.0006276747060043198,2.2040356455917487e-08
0.0006466653808226475,3.156036628242424e-08
0.0006662306299015053,4.4219793305123024e-08
0.0006863878373298735,6.06404184985825e-08
0.0007071549131627765,8.141771539610975e-08
0.0007285503093346991,1.0706591711771682e-07
0.0007505930360544725,1.379592278567559e-07
0.0007733026786962036,1.742768259741134e-07
0.0007966994152012442,2.159603935442776e-07
0.000820804034006665,2.626924611979353e-07
0.0008456379525161752,3.1390166290289214e-07
0.0008712232361298838,3.6879725092187397e-07
0.0008975826178498154,4.264305581470135e-07
0.0009247395184786131,4.857764653087702e-07
0.0009527180674293558,5.458243744959848e-07
0.0009815431241649891,6.056665483839493e-07
0.001011240300286428,6.645723356871242e-07
0.00104183598228894,7.220395814385198e-07
0.0010733573550070338,7.778187079194852e-07
0.0011058324257687008,8.319095370648164e-07
0.0011392900492804441,8.845348994995843e-07
0.0011737599532652201,9.360977181340088e-07
0.0012092727648760843,9.871292957823856e-07
0.0012458600379089788,1.0382361536513927e-06
0.0012835542808388761,1.0900514345344996e-06
0.0013223889857041644,1.1431951541219858e-06
0.0013623986578649432,1.198245897681043e-06
0.001403618846661689,1.2557251515371442e-06
0.0014460861770014986,1.3160943668319622e-06
0.0014898383819000102,1.3797639994840421e-06
0.0015349143360078898,1.4471130558427397e-06
0.001581354090151678,1.5185170367836816e-06
0.0016291989069197068,1.5943816062401304e-06
0.0016784912973246743,1.6751788512214651e-06
0.0017292750585754684,1.761482726425387e-06
0.0017815953129918145,1.8540003075283301e-06
0.0018354985480962933,1.9535959712725025e-06
0.0018910326579193667,2.061306737295527e-06
0.0019482469855541295,2.17834883934997e-06
0.0020071923669985623,2.3061181167528733e-06
0.0020679211763242594,2.4461899470887958e-06
0.0021304873722117787,2.6003283356958226e-06
0.002194946545893935,2.770519527564646e-06
0.002261355970549636,2.9590564698085587e-06
0.002329774652192188,3.168724716315793e-06
0.002400263382097231,3.4031953841560773e-06
0.002472884790816916,3.6678521283216337e-06
0.0025477034038283333,3.971536761829831e-06
0.002624785698865596,4.330225312828426e-06
0.00270420016498654,4.774687837444439e-06
0.0027860173634265454,5.36617368541444e-06
0.0028703099902935036,6.227829217163537e-06
0.0029571529411596582,7.606067963359409e-06
0.003046623377607734,9.987243370216247e-06
0.0031388007957904376,1.4313211678810382e-05
0.0032337670970642605,2.2367911520475247e-05
0.003331606660760383,3.7449503003000404e-05
0.0034324064191572777,6.550199575484362e-05
0.0035362559347216467,0.00011695760009730082
0.0036432474796863693,0.00020963240719685912
0.003753476118036091,0.0003731112062740882
0.0038670397899733372,0.0006551276699505042
0.003984039398940235,0.0011304536569747472
0.00410457890127309,0.0019127001257672276
0.004228765398569525,0.0031691358934745686
0.004356709232850266,0.0051380862578645865
0.004488524084600081,0.008147644851978955
0.004624327073775,0.01263334018590557
0.004764238863865586,0.019151154873472593
0.004908383769108734,0.028381126302130324
0.005056889864943131,0.041116001314484764
0.005209889101806705,0.058229486223758495
0.005367517422377078,0.08061992518481337
0.0055299148823591176,0.10912801091050625
0.005697225774927069,0.14443135313684405
0.005869598758931771,0.18692397250237275
0.006047186990986751,0.23659418530736911
0.006230148261550775,0.2929186876176375
0.0064186451351276215,0.35479261209465557
0.006612845094707664,0.42051382435565954
0.006812920690579615,0.4878342563002408
0.007019049693644721,0.5540820378439234
0.0072314152533695004,0.6163469511930236
0.007450206060517447,0.671710433194271
0.007675616514804332,0.7174924448466365
0.007907846897625966,0.7514831561367427
0.008147103550011928,0.7721287841122147
0.008393599055963468,0.7786479828858974
0.008647552431338343,0.7710664713324036
0.008909189318450464,0.7501706492993575
0.00917874218655735,0.7173929924556894
0.009456450538413387,0.6746506164380379
0.00974256112307246,0.62416215113944
0.01003732815512916,0.5682668450737285
0.010341013540593124,0.5092646938053312
0.010653887109597478,0.4492891733794438
0.0109762268561479,0.3902168313139103
0.01130831918512549,0.3336121144619765
0.01165045916676289,0.28070221931565625
0.012002950798819639,0.23237545530189768
0.01236610727668989,0.18919702402589025
0.012740251271682348,0.15143737246052086
0.01312571521771978,0.11910957822357672
0.01352284160671271,0.09201307225960187
0.01393198329286991,0.0697812724235493
0.01435350380621596,0.05193056458043154
0.014787777675594416,0.03790784434370096
0.015235190761443706,0.027133821668695837
0.015696140598641353,0.01903965880698336
0.016171036749721087,0.013095256696525965
0.016660301168776814,0.008828485219313727
0.01716436857637675,0.0058356624950074865
0.017683686845820695,0.003784431892157838
0.018218717401083842,0.0024107331374115942
0.018769935626800606,0.0015117741246485684
0.019337831290652745,0.0009368201385335717
0.01992290897853706,0.0005773154069944984
0.02052568854289939,0.00035744358669163515
0.021146705564633255,0.00022581358935247093
0.021786511828953414,0.00014859231207833322
0.022445675815667348,0.00010413147045058524
0.023124783204280224,7.89590674653805e-05
0.023824437394381993,6.491519287518354e-05
0.02454526004177924,5.718544582585094e-05
0.025287891610847935,5.30001765150675e-05
0.026052991943598055,5.080401129923985e-05
0.026841240845955423,4.974320271437664e-05
0.027653338691782024,4.935921448627231e-05
0.02849000704517128,4.9411147269240014e-05
0.02935198930157114,4.977582711492206e-05
0.03024005134830484,5.039315098038372e-05
0.031154982245076148,5.123698187988975e-05
0.032097594925063526,5.230006366537301e-05
0.0330687269172265,5.358646892391667e-05
0.03406924109046583,5.510808726985121e-05
0.035100026420298434,5.68833763068387e-05
0.036161998778728964,5.8937542179637945e-05
0.037256101748019084,6.13038065064503e-05
0.03838330745907778,6.402563950823254e-05
0.039544617455218076,6.715990650293778e-05
0.040741063582046814,7.078085633529203e-05
0.041973708904278643,7.498482737369169e-05
0.043243648650289075,7.989550984545422e-05
0.04455201118524525,8.566964751202655e-05
0.04589995901367928,9.250328445976624e-05
0.04728868981239551,0.00010063921397773945
0.048719437494628565,0.00011037738653176657
0.05019347330639818,0.00012209198079638633
0.05171210695603525,0.0001362619920371412
0.05327668777788204,0.0001535268935198126
0.05488860593120073,0.00017478537849446364
0.05654929363535618,0.00020136321399817395
0.05826022644236947,0.000235284960012664
0.06002292454797317,0.0002796918034430835
0.06183895414233406,0.0003394507579177451
0.06370992880164184,0.0004219943241950199
0.06563751092180212,0.0005384087413265563
0.06762341319550604,0.0007047476294847455
0.06966940013398946,0.0009434825362582254
0.07177728963483458,0.0012849135506570386
0.0739489545972056,0.0017682598881727928
0.07618632458595442,0.00244204967031179
0.07849138754607547,0.0033633571653939663
0.08086619156903166,0.0045954286032289125
0.0833128467125217,0.006203328842852216
0.0858335268753062,0.00824745554851972
0.08843047172875704,0.010775108403825145
0.09110598870684694,0.01381073930280121
0.09386245505634813,0.017345979088493984
0.09670231994906024,0.0213309381421625
0.09962810665794483,0.02566849643151447
0.10264241479910112,0.030213228646608026
0.10574792264157308,0.03477618994735563
0.10894738948704122,0.03913602743696139
0.11224365812151421,0.04305587791868144
0.115639657341197,0.04630443890653581
0.11913840455478059,0.04867867946509053
0.12274300846446674,0.05002510859087682
0.12645667182810702,0.05025649855139638
0.1302826943049137,0.04936151741397007
0.13422447538726828,0.04740577746733977
0.1382855174212334,0.04452415565996928
0.14246942871845358,0.04090561793860874
0.14677992676220705,0.036772904782574826
0.1512208415104586,0.032360095068476986
0.15579611879884947,0.02789115578442532
0.16050982384664572,0.02356213216886208
0.16536614486876083,0.019528776627742724
0.17036939679706378,0.0159003655103211
0.17552402511427612,0.012739434151185591
0.18083460980386573,0.010066356754832318
0.18630586941944874,0.00786721822801532
0.191942665277312,0.00610329357177462
0.19775000577578267,0.004720616254700162
0.20373305084528473,0.0036584820609226604
0.20989711653303306,0.002856185893572091
0.21624767972643985,0.0022577251475622306
0.22279038301943255,0.0018145541347691762
0.22953103972600333,0.0014867055978897458
0.23647563904544633,0.00124270600463289
0.2436303513838746,0.001058722104986874
0.25100153383673934,0.0009173192218254411
0.25859573583722933,0.0008061199807296363
0.2664197049755641,0.0007165529950349033
0.27448039299435284,0.0006427929273349132
0.28278496196534886,0.0005809259359071469
0.29134079065308366,0.0005283301415692033
0.3001554810710358,0.00048323698401505017
0.3092368652361634,0.0004444313119490109
0.3185930121277967,0.00041105030546327614
0.328232234857076,0.00038244897249072523
0.3381630980533074,0.0003581092544323992
0.34839442547379557,0.0003375782723575698
0.3589353078439152,0.0003204276674528277
0.3697951109343925,0.0003062299777899185
0.3809834838829662,0.0002945498118844576
0.3925103677678255,0.0002849478332073236
0.40438600444044565,0.00027699496436237394
0.4166209456256632,0.00027029338138619146
0.42922606229707916,0.000264500239882363
0.4422125543361243,0.0002593498860592242
0.45559196048336176,0.0002546706116437703
0.4693761685908721,0.0002503927602481731
0.48357742618483474,0.00024654609404652225
0.4982083513476799,0.00024324569275741765
0.5132819439294938,0.00024066718714906192
0.5288115970986266,0.0002390136975320818
0.5448111092417707,0.00023847826233873947
0.5612946962240882,0.000239206551934608
0.5782770040202713,0.0002412650065782563
0.5957731217277612,0.0002446190259505326
0.6137985949736976,0.00024912444148179587
0.632369439727496,0.00025453340374226915
0.6515021565313341,0.00026051339753972974
0.6712137451611946,0.0002666758605630511
0.6915217197314824,0.0002726093269427709
0.7124441242566392,0.0002779115072488503
0.7339995486835922,0.00028221537600279535
0.7562071454092661,0.00028520601608071725
0.7790866462978432,0.00028662727373872534
0.8026583802128976,0.0002862796674134498
0.8269432910799676,0.0002840129073048488
0.851962956495622,0.00027971737315486515
0.8777396068995623,0.00027331873587083507
0.904296145326781,0.00026477864221588954
0.9316561677573327,0.0002541023284292036
0.959843984081809,0.00024135170560942712
0.9888846397011232,0.0002266604610451365
1.0188039377798224,0.0002102465682530988
1.0496284621726786,0.00019241760961000328
1.0813856010449363,0.00017356551036897216
1.1141035712072147,0.00015414937926470945
1.147811443186668,0.0001346676369450575
1.182539167056687,0.00011562288547785011
1.218317599048106,9.748449643703829e-05
1.2551785289655366,8.065434514223069e-05
1.2931547084331976,6.544044872918972e-05
1.3322798799953526,5.204170188786525e-05
1.3725888070971866,4.054486179548323e-05
1.4141173049727718,3.093289287422743e-05
1.4569022724675795,2.31021598252683e-05
1.5009817248237893,1.6885016102387864e-05
1.5463948274575363,1.2074144198244799e-05
1.5931819307581239,8.445459548643007e-06
1.6413846059400925,5.777272399845421e-06
1.6910456819800161,3.8644527888066204e-06
1.7422092836708554,2.5273318516499855e-06
1.794920870827656,1.6158389292621028e-06
1.8492272786794375,1.0098465113500297e-06
1.9051767594831799,6.168797615003769e-07
1.9628190253968414,3.683029842746564e-07
2.022205292649551,2.149046183948839e-07
2.0833883270481772,1.2254683220960573e-07
2.1464224908607292,6.829005941698994e-08
2.2113637911182553,3.7187575892764165e-08
2.278269929378132,1.9788432749608475e-08
2.3472003529929664,1.0289354945057217e-08
2.4182163079306926,5.22780980370099e-09
2.491380893192751,2.595370029789968e-09
2.5667591168787194,1.2589856702015744e-09
2.644417953947241,5.967320234049062e-10
2.724426405724515,2.763572168234924e-10
2.8068555612132555,1.250523045602068e-10
2.8917786602566133,5.528904475323366e-11
2.9792711586131375,2.3884189762567674e-11
3.069410795000612,1.0081006956997158e-11
3.1622776601683795,4.157359265319923e-12
