L,0
R,0.8948040579717361
tau,gamma
0.00031622776601683794,6.62799710916487e-16
0.0003257954268059452,1.6072199501863734e-15
0.0003356525629125699,3.807940835868649e-15
0.0003458079325861202,8.815136835598278e-15
0.0003562705590620961,1.993859003980579e-14
0.00036704973857940124,4.40645539005931e-14
0.00037815504864022377,9.51519040690942e-14
0.0003895963565198278,2.007627311664875e-13
0.0004013838280338108,4.138961613241472e-13
0.00041352793657061903,8.337744741744787e-13
0.00042603947239735167,1.6412022411576561e-12
0.00043892955224711117,3.156754327416918e-12
0.0004522096291964309,5.9332854749826695e-12
0.00046589150284154663,1.0897782837387003e-11
0.000479987329782556,1.9560710854508784e-11
0.0004945096344247876,3.431253235916147e-11
0.0005094713201069679,5.88252985395798e-11
0.0005248856805660765,9.856993781833275e-11
0.0005407664117490826,1.6144496130234199e-10
0.0005571276239820482,2.584882171466328e-10
0.000573983854507415,4.0461016307042014e-10
0.0005913500804006177,6.192476609236415e-10
0.0006092417318774946,9.267978079035058e-10
0.0006276747060043198,1.3566617013658614e-09
0.0006466653808226475,1.9427207343139188e-09
0.0006662306299015053,2.722095508582722e-09
0.0006863878373298735,3.733108402846852e-09
0.0007071549131627765,5.012485737351332e-09
0.0007285503093346991,6.591983076707482e-09
0.0007505930360544725,8.494773349891743e-09
0.0007733026786962036,1.0732067768066888e-08
0.0007966994152012442,1.3300506331411501e-08
0.000820804034006665,1.6180827256056285e-08
0.0008456379525161752,1.9338189769611424e-08
0.0008712232361298838,2.2724294625809786e-08
0.0008975826178498154,2.628116021916444e-08
0.0009247395184786131,2.994612784668026e-08
0.0009527180674293558,3.3657451361718184e-08
0.0009815431241649891,3.735972576697168e-08
0.001011240300286428,4.1008450022760295e-08
0.00104183598228894,4.457318998843862e-08
0.0010733573550070338,4.803906445282106e-08
0.0011058324257687008,5.14065585539873e-08
0.0011392900492804441,5.4689912700343855e-08
0.0011737599532652201,5.791449724867179e-08
0.0012092727648760843,6.111364723968615e-08
0.0012458600379089788,6.432540837877119e-08
0.0012835542808388761,6.758956424894176e-08
0.0013223889857041644,7.094520931053686e-08
0.0013623986578649432,7.442902958947061e-08
0.001403618846661689,7.807436746070238e-08
0.0014460861770014986,8.191108125596666e-08
0.0014898383819000102,8.596616103389965e-08
0.0015349143360078898,9.02650260431177e-08
0.001581354090151678,9.483341223962193e-08
0.0016291989069197068,9.969978143196658e-08
0.0016784912973246743,1.0489830382540328e-07
0.0017292750585754684,1.1047281631854733e-07
0.0017815953129918145,1.1648304287754751e-07
0.0018354985480962933,1.2301644865222308e-07
0.0018910326579193667,1.3021381519873947e-07
0.0019482469855541295,1.3832693559994104e-07
0.0020071923669985623,1.4784869727345276e-07
0.0020679211763242594,1.5980083520702451e-07
0.0021304873722117787,1.7635452254444126e-07
0.002194946545893935,2.0213289343312525e-07
0.002261355970549636,2.4687035568448225e-07
0.002329774652192188,3.306934110653488e-07
0.002400263382097231,4.943189810462209e-07
0.002472884790816916,8.182049351186546e-07
0.0025477034038283333,1.4575103698717545e-06
0.002624785698865596,2.7041296980435837e-06
0.00270420016498654,5.093666795486199e-06
0.0027860173634265454,9.584691173744213e-06
0.0028703099902935036,1.7850617074736087e-05
0.0029571529411596582,3.274154866694546e-05
0.003046623377607734,5.899458107298224e-05
0.0031388007957904376,0.00010429598222379873
0.0032337670970642605,0.00018082645936641503
0.003331606660760383,0.000307449802473041
0.0034324064191572777,0.0005127335196922918
0.0035362559347216467,0.0008390149311087346
0.0036432474796863693,0.0013477436531388904
0.003753476118036091,0.002126334863433173
0.0038670397899733372,0.0032967451161026295
0.003984039398940235,0.00502591252983618
0.00410457890127309,0.007538051987968555
0.004228765398569525,0.011128516385050519
0.004356709232850266,0.01617847247882776
0.004488524084600081,0.02316894931939642
0.004624327073775,0.03269189124706703
0.004764238863865586,0.045454754818892364
0.004908383769108734,0.06227411185931419
0.005056889864943131,0.08405297392655528
0.005209889101806705,0.1117365642925269
0.005367517422377078,0.1462424952786262
0.0055299148823591176,0.18836412348323703
0.005697225774927069,0.23865033749388118
0.005869598758931771,0.29727082146990935
0.006047186990986751,0.3638820376535618
0.006230148261550775,0.4375144054466916
0.0064186451351276215,0.5165038072224178
0.006612845094707664,0.5984891684606481
0.006812920690579615,0.6804916353178665
0.007019049693644721,0.759080060455068
0.0072314152533695004,0.8306136083117011
0.007450206060517447,0.8915378891808544
0.007675616514804332,0.9386992696914453
0.007907846897625966,0.9696358000720756
0.008147103550011928,0.9828044076117484
0.008393599055963468,0.9777128372677176
0.008647552431338343,0.9549396589940511
0.008909189318450464,0.916043424807645
0.00917874218655735,0.8633789862709259
0.009456450538413387,0.7998516223512642
0.00974256112307246,0.7286457131142028
0.01003732815512916,0.6529636538662196
0.010341013540593124,0.5758036545056796
0.010653887109597478,0.4997943437662459
0.0109762268561479,0.4270924918230856
0.01130831918512549,0.3593401529418442
0.01165045916676289,0.29767070432795556
0.012002950798819639,0.24275010913400064
0.01236610727668989,0.19483978369986155
0.012740251271682348,0.1538696286528144
0.01312571521771978,0.1195128684737744
0.01352284160671271,0.0912573318089926
0.01393198329286991,0.06847010991890078
0.01435350380621596,0.050453999600167464
0.014787777675594416,0.03649492744208194
0.015235190761443706,0.025899958270766528
0.015696140598641353,0.018025786075320724
0.016171036749721087,0.012297952694931372
0.016660301168776814,0.008221469413137247
0.01716436857637675,0.005383965418709663
0.017683686845820695,0.003452854364085252
0.018218717401083842,0.0021682122919012975
0.018769935626800606,0.001333061088937702
0.019337831290652745,0.0008025683414379299
0.01992290897853706,0.00047336271422276433
0.02052568854289939,0.00027379555567165974
0.021146705564633255,0.00015562100159637664
0.021786511828953414,8.726612928896553e-05
0.022445675815667348,4.864366388372235e-05
0.023124783204280224,2.7325065994111482e-05
0.023824437394381993,1.582954713146345e-05
0.02454526004177924,9.775494500345474e-06
0.025287891610847935,6.664817002952265e-06
0.026052991943598055,5.110772086324409e-06
0.026841240845955423,4.363612296144885e-06
0.027653338691782024,4.0284648908985156e-06
0.02849000704517128,3.90273705769552e-06
0.02935198930157114,3.8852383257555e-06
0.03024005134830484,3.9268910453499695e-06
0.031154982245076148,4.00478319067707e-06
0.032097594925063526,4.108930223807853e-06
0.0330687269172265,4.235787601992906e-06
0.03406924109046583,4.385329570857722e-06
0.035100026420298434,4.560128600252355e-06
0.036161998778728964,4.76584309289437e-06
0.037256101748019084,5.013192845775447e-06
0.03838330745907778,5.322114070878187e-06
0.039544617455218076,5.729527621942076e-06
0.040741063582046814,6.30319286043264e-06
0.041973708904278643,7.1656119943601116e-06
0.043243648650289075,8.534028676809422e-06
0.04455201118524525,1.078529851973279e-05
0.04589995901367928,1.4557730915626216e-05
0.04728868981239551,2.0905612646360906e-05
0.048719437494628565,3.1525390645770886e-05
0.05019347330639818,4.9074369997557635e-05
0.05171210695603525,7.760182572108483e-05
0.05327668777788204,0.00012310693089880923
0.05488860593120073,0.00019422625444341223
0.05654929363535618,0.00030303478587420863
0.05826022644236947,0.0004659187738318636
0.06002292454797317,0.0007044482260342598
0.06183895414233406,0.0010461458765546757
0.06370992880164184,0.001525023609957376
0.06563751092180212,0.002181743059044127
0.06762341319550604,0.0030632593416234635
0.06966940013398946,0.004221827316501156
0.07177728963483458,0.005713285307439142
0.0739489545972056,0.007594574572105377
0.07618632458595442,0.009920494578817579
0.07849138754607547,0.012739727636855274
0.08086619156903166,0.01609019246067098
0.0833128467125217,0.019993816642910667
0.0858335268753062,0.024450874501751308
0.08843047172875704,0.029434143939141445
0.09110598870684694,0.03488330865377647
0.09386245505634813,0.04070026086461782
0.09670231994906024,0.0467462003709487
0.09962810665794483,0.05284159936139259
0.10264241479910112,0.058770110355488986
0.10574792264157308,0.06428724825160449
0.10894738948704122,0.0691341341363028
0.11224365812151421,0.0730557832781892
0.115639657341197,0.07582247761043771
0.11913840455478059,0.07725188331057789
0.12274300846446674,0.07722898583208651
0.12645667182810702,0.07572081353188734
0.1302826943049137,0.0727834062392862
0.13422447538726828,0.06855951869093134
0.1382855174212334,0.06326695176040921
0.14246942871845358,0.05717889533324477
0.14677992676220705,0.05059893184017686
0.1512208415104586,0.04383412443154168
0.15579611879884947,0.03716975093715716
0.16050982384664572,0.030848746923791134
0.16536614486876083,0.02505793266343762
0.17036939679706378,0.019921859323240684
0.17552402511427612,0.01550388714181014
0.18083460980386573,0.011813132263069046
0.18630586941944874,0.008815332343372182
0.191942665277312,0.0064455219524109705
0.19775000577578267,0.0046206205550435005
0.20373305084528473,0.0032504991075993626
0.20989711653303306,0.002246664025407856
0.21624767972643985,0.00152825113610657
0.22279038301943255,0.001025466579809893
0.22953103972600333,0.0006809023719555467
0.23647563904544633,0.00044928965496005945
0.2436303513838746,0.0002962602900136756
0.25100153383673934,0.00019660948812820096
0.25859573583722933,0.00013243173303897486
0.2664197049755641,9.137442720484346e-05
0.27448039299435284,6.51416764991758e-05
0.28278496196534886,4.829573761243687e-05
0.29134079065308366,3.734789312295446e-05
0.3001554810710358,3.0100050830178987e-05
0.3092368652361634,2.5186708987788294e-05
0.3185930121277967,2.1767334786491695e-05
0.328232234857076,1.932600481590247e-05
0.3381630980533074,1.7544298111678555e-05
0.34839442547379557,1.6222430158453536e-05
0.3589353078439152,1.5231231615269973e-05
0.3697951109343925,1.4483414416221712e-05
0.3809834838829662,1.3916721373357028e-05
0.3925103677678255,1.3484334358472067e-05
0.40438600444044565,1.3149683131488694e-05
0.4166209456256632,1.2883876837156999e-05
0.42922606229707916,1.2664625232180854e-05
0.4422125543361243,1.2475903170380828e-05
0.45559196048336176,1.2307853088520804e-05
0.4693761685908721,1.2156584158006091e-05
0.48357742618483474,1.2023652094138967e-05
0.4982083513476799,1.1915111315250187e-05
0.5132819439294938,1.184013097479599e-05
0.5288115970986266,1.1809259714428815e-05
0.5448111092417707,1.1832505114852839e-05
0.5612946962240882,1.1917451921529585e-05
0.5782770040202713,1.2067665765504858e-05
0.5957731217277612,1.2281607120967105e-05
0.6137985949736976,1.2552212456893076e-05
0.632369439727496,1.2867195480776855e-05
0.6515021565313341,1.3210000707495471e-05
0.6712137451611946,1.3561230080791422e-05
0.6915217197314824,1.3900286495200814e-05
0.7124441242566392,1.4206954203635933e-05
0.7339995486835922,1.4462671480886507e-05
0.7562071454092661,1.4651337695992574e-05
0.7790866462978432,1.4759614905858942e-05
0.8026583802128976,1.4776805417122872e-05
0.8269432910799676,1.469448269280252e-05
0.851962956495622,1.4506100578316127e-05
0.8777396068995623,1.420679354704825e-05
0.904296145326781,1.3793511359389382e-05
0.9316561677573327,1.326552211991242e-05
0.959843984081809,1.262519552012573e-05
0.9888846397011232,1.187887430477219e-05
1.0188039377798224,1.1037584041564781e-05
1.0496284621726786,1.0117335366022337e-05
1.0813856010449363,9.13883964641967e-06
1.1141035712072147,8.126573039830791e-06
1.147811443186668,7.107257690365314e-06
1.182539167056687,6.107950157769413e-06
1.218317599048106,5.1540077645092946e-06
1.2551785289655366,4.267226293149437e-06
1.2931547084331976,3.46440524463131e-06
1.3322798799953526,2.7565120370128085e-06
1.3725888070971866,2.1485064552941924e-06
1.4141173049727718,1.6397770521929898e-06
1.4569022724675795,1.225054303440105e-06
1.5009817248237893,8.956150490757898e-07
1.5463948274575363,6.405827105712909e-07
1.5931819307581239,4.481522959179403e-07
1.6413846059400925,3.066165237099856e-07
1.6910456819800161,2.0512565895024485e-07
1.7422092836708554,1.3416651835050346e-07
1.794920870827656,8.578708860530209e-08
1.8492272786794375,5.3618485639833584e-08
1.9051767594831799,3.275588892764166e-08
1.9628190253968414,1.955775800661705e-08
2.022205292649551,1.1412493983559481e-08
2.0833883270481772,6.50810478702092e-09
2.1464224908607292,3.626809609796685e-09
2.2113637911182553,1.9750477042267757e-09
2.278269929378132,1.0509972601161423e-09
2.3472003529929664,5.464961743357432e-10
2.4182163079306926,2.776681991535208e-10
2.491380893192751,1.3785161467135515e-10
2.5667591168787194,6.687111654614792e-11
2.644417953947241,3.169578517113331e-11
2.724426405724515,1.4679006481485268e-11
2.8068555612132555,6.642333016938605e-12
2.8917786602566133,2.9367747115236964e-12
2.9792711586131375,1.268657065571739e-12
3.069410795000612,5.354753449371117e-13
3.1622776601683795,2.208282665718747e-13
