L,0
R,0.8836384543096373
tau,gamma
0.00031622776601683794,3.1619453741581534e-15
0.0003257954268059452,7.667386123982909e-15
0.0003356525629125699,1.8166119769394722e-14
0.0003458079325861202,4.2053388241714255e-14
0.0003562705590620961,9.511879123262343e-14
0.00036704973857940124,2.102137839837295e-13
0.00037815504864022377,4.539303444744534e-13
0.0003895963565198278,9.57755670371077e-13
0.0004013838280338108,1.974526291727667e-12
0.00041352793657061903,3.977589684886309e-12
0.00042603947239735167,7.829487284412562e-12
0.00043892955224711117,1.5059543603638308e-11
0.0004522096291964309,2.8305187481615094e-11
0.00046589150284154663,5.198866434392711e-11
0.000479987329782556,9.33157193350317e-11
0.0004945096344247876,1.636901491413877e-10
0.0005094713201069679,2.806295709294454e-10
0.0005248856805660765,4.702331040797936e-10
0.0005407664117490826,7.701805107890111e-10
0.0005571276239820482,1.2331274288217844e-09
0.000573983854507415,1.9302031075388844e-09
0.0005913500804006177,2.9541287687479717e-09
0.0006092417318774946,4.421286310204699e-09
0.0006276747060043198,6.4719257633908236e-09
0.0006466653808226475,9.26766508941387e-09
0.0006662306299015053,1.2985567052817369e-08
0.0006863878373298735,1.7808416421722584e-08
0.0007071549131627765,2.391136896664095e-08
0.0007285503093346991,3.1445847950915864e-08
0.0007505930360544725,4.052230877347692e-08
0.0007733026786962036,5.119411413308591e-08
0.0007966994152012442,6.344508087131236e-08
0.000820804034006665,7.71831286524698e-08
0.0008456379525161752,9.22418170873652e-08
0.0008712232361298838,1.0839046003255968e-07
0.0008975826178498154,1.2535213892309314e-07
0.0009247395184786131,1.4282758028450754e-07
0.0009527180674293558,1.6052182090749394e-07
0.0009815431241649891,1.78170103652851e-07
0.001011240300286428,1.9555964118679364e-07
0.00104183598228894,2.1254469919906706e-07
0.0010733573550070338,2.2905367718345386e-07
0.0011058324257687008,2.450882073580912e-07
0.0011392900492804441,2.607154556416965e-07
0.0011737599532652201,2.7605558212772284e-07
0.0012092727648760843,2.91266623767564e-07
0.0012458600379089788,3.0652895118775426e-07
0.0012835542808388761,3.220310634487327e-07
0.0013223889857041644,3.3795798062799713e-07
0.0013623986578649432,3.544830030673646e-07
0.001403618846661689,3.7176319584191595e-07
0.0014460861770014986,3.899386380239212e-07
0.0014898383819000102,4.0913522579225746e-07
0.0015349143360078898,4.294706074220491e-07
0.001581354090151678,4.510626390418889e-07
0.0016291989069197068,4.740395811448289e-07
0.0016784912973246743,4.985511194469673e-07
0.0017292750585754684,5.24779214653444e-07
0.0017815953129918145,5.529478033297487e-07
0.0018354985480962933,5.833305408204095e-07
0.0018910326579193667,6.16256161131964e-07
0.0019482469855541295,6.521116959592958e-07
0.0020071923669985623,6.913448386441545e-07
0.0020679211763242594,7.344683819592335e-07
0.0021304873722117787,7.820725439773129e-07
0.002194946545893935,8.348568397659229e-07
0.002261355970549636,8.937061089329928e-07
0.002329774652192188,9.5986470303151e-07
0.002400263382097231,1.0353286111882096e-06
0.002472884790816916,1.1237184127196193e-06
0.0025477034038283333,1.2321976039368933e-06
0.002624785698865596,1.3756164417777112e-06
0.00270420016498654,1.5852771466503246e-06
0.0027860173634265454,1.927037605183549e-06
0.0028703099902935036,2.5377504439389297e-06
0.0029571529411596582,3.6966392049431392e-06
0.003046623377607734,5.961207489571295e-06
0.0031388007957904376,1.0418562661552124e-05
0.0032337670970642605,1.9136331253930926e-05
0.003331606660760383,3.594679963755152e-05
0.0034324064191572777,6.776709655142175e-05
0.0035362559347216467,0.00012674816625260566
0.0036432474796863693,0.00023365132243044118
0.003753476118036091,0.00042295880677701057
0.0038670397899733372,0.0007503049262579108
0.003984039398940235,0.001302819693060113
0.00410457890127309,0.002212841641578526
0.004228765398569525,0.003675102745118383
0.004356709232850266,0.00596684221852308
0.004488524084600081,0.00946932506365454
0.004624327073775,0.014687951442903368
0.004764238863865586,0.022266677737307748
0.004908383769108734,0.03299109827084101
0.005056889864943131,0.04777366156468479
0.005209889101806705,0.06761460749155844
0.005367517422377078,0.09353378709158972
0.0055299148823591176,0.1264718725378047
0.005697225774927069,0.16716454847964193
0.005869598758931771,0.21599958537065267
0.006047186990986751,0.2728731924684494
0.006230148261550775,0.3370672733649971
0.0064186451351276215,0.4071715529874238
0.006612845094707664,0.48107266775338453
0.006812920690579615,0.556025580900074
0.007019049693644721,0.6288115448563472
0.0072314152533695004,0.6959729124503198
0.007450206060517447,0.7541010047770623
0.007675616514804332,0.8001420158448997
0.007907846897625966,0.8316802937351604
0.008147103550011928,0.8471599295269512
0.008393599055963468,0.8460144524124753
0.008647552431338343,0.8286889088262421
0.008909189318450464,0.796555697184109
0.00917874218655735,0.7517416639526895
0.009456450538413387,0.6968959112127302
0.00974256112307246,0.6349334377500706
0.01003732815512916,0.5687886476269101
0.010341013540593124,0.5012059985098125
0.010653887109597478,0.4345848366000352
0.0109762268561479,0.3708844053109621
0.01130831918512549,0.3115854503243999
0.01165045916676289,0.25769828221234103
0.012002950798819639,0.20980408345761525
0.01236610727668989,0.1681162377046415
0.012740251271682348,0.13255052655358956
0.01312571521771978,0.10279603722073788
0.01352284160671271,0.07838159238517957
0.01393198329286991,0.058734866745302726
0.01435350380621596,0.04323290757140022
0.014787777675594416,0.03124364126927271
0.015235190761443706,0.02215837991896746
0.015696140598641353,0.015415596410079422
0.016171036749721087,0.010516481450950386
0.016660301168776814,0.007033085302467207
0.01716436857637675,0.004610149331924591
0.017683686845820695,0.0029619760607680202
0.018218717401083842,0.0018658067122503594
0.018769935626800606,0.0011531426807379508
0.019337831290652745,0.0007002736593761226
0.01992290897853706,0.00041900361682031367
0.02052568854289939,0.0002482532429060911
0.021146705564633255,0.00014691708033984916
0.021786511828953414,8.810343459329921e-05
0.022445675815667348,5.470420831604479e-05
0.023124783204280224,3.613163768803076e-05
0.023824437394381993,2.600914292035975e-05
0.02454526004177924,2.0597947875520363e-05
0.025287891610847935,1.7762892617827425e-05
0.026052991943598055,1.6315680622578814e-05
0.026841240845955423,1.561142925619142e-05
0.027653338691782024,1.5308656814137553e-05
0.02849000704517128,1.5230873320283272e-05
0.02935198930157114,1.5289136906372543e-05
0.03024005134830484,1.543997078111561e-05
0.031154982245076148,1.5663133053234563e-05
0.032097594925063526,1.595019477606728e-05
0.0330687269172265,1.6298842910564452e-05
0.03406924109046583,1.6710158805902755e-05
0.035100026420298434,1.718744855384348e-05
0.036161998778728964,1.7735928604100284e-05
0.037256101748019084,1.8362954188602112e-05
0.03838330745907778,1.9078672828749027e-05
0.039544617455218076,1.989708144506323e-05
0.040741063582046814,2.0837520533448302e-05
0.041973708904278643,2.1926696395995205e-05
0.043243648650289075,2.3201429275774765e-05
0.04455201118524525,2.4712546479735253e-05
0.04589995901367928,2.653077514827335e-05
0.04728868981239551,2.875629169821015e-05
0.048719437494628565,3.1534973701214804e-05
0.05019347330639818,3.508666485596428e-05
0.05171210695603525,3.97542417404044e-05
0.05327668777788204,4.608727644260726e-05
0.05488860593120073,5.498077282044872e-05
0.05654929363535618,6.789757292701576e-05
0.05826022644236947,8.72116270310793e-05
0.06002292454797317,0.00011671635613260305
0.06183895414233406,0.00016234437356704576
0.06370992880164184,0.00023313695628547932
0.06563751092180212,0.0003424778597084614
0.06762341319550604,0.0005095603633056825
0.06966940013398946,0.0007609848291610772
0.07177728963483458,0.0011322873409719155
0.0739489545972056,0.0016690868274521016
0.07618632458595442,0.002427427478362135
0.07849138754607547,0.003472815144735172
0.08086619156903166,0.004877438765831059
0.0833128467125217,0.006715169610782784
0.0858335268753062,0.009054170824801451
0.08843047172875704,0.011947331994304734
0.09110598870684694,0.015421236451638027
0.09386245505634813,0.01946489866660942
0.09670231994906024,0.024019963546551785
0.09962810665794483,0.028974307791889753
0.10264241479910112,0.03416090610201076
0.10574792264157308,0.0393633508242936
0.10894738948704122,0.044328552612532546
0.11224365812151421,0.04878601007502128
0.115639657341197,0.052471816685611065
0.11913840455478059,0.05515452598276744
0.12274300846446674,0.05665937004565975
0.12645667182810702,0.056887300857851486
0.1302826943049137,0.05582595563412553
0.13422447538726828,0.05355084361726076
0.1382855174212334,0.05021658756477534
0.14246942871845358,0.046039620113536864
0.14677992676220705,0.04127501803159679
0.1512208415104586,0.036190910338274866
0.15579611879884947,0.031044000460267538
0.16050982384664572,0.026059227352139225
0.16536614486876083,0.021415615340411767
0.17036939679706378,0.017239167147896965
0.17552402511427612,0.013602494396057829
0.18083460980386573,0.010529965154592586
0.18630586941944874,0.008006603623572459
0.191942665277312,0.005988829283899558
0.19775000577578267,0.004415313320894415
0.20373305084528473,0.0032166462495309277
0.20989711653303306,0.0023230227226538076
0.21624767972643985,0.0016696426586355864
0.22279038301943255,0.0011999225093196376
0.22953103972600333,0.0008668690657106861
0.23647563904544633,0.0006330901888923099
0.2436303513838746,0.0004699272911509992
0.25100153383673934,0.000356130287770607
0.25859573583722933,0.0002763945108704484
0.2664197049755641,0.00021997099362429457
0.27448039299435284,0.00017946649008432613
0.28278496196534886,0.00014987731737794606
0.29134079065308366,0.00012785339949342007
0.3001554810710358,0.00011116260034738649
0.3092368652361634,9.831515277285854e-05
0.3185930121277967,8.830804027432047e-05
0.328232234857076,8.045476176876455e-05
0.3381630980533074,7.42735207485536e-05
0.34839442547379557,6.941435746763611e-05
0.3589353078439152,6.5611980294608e-05
0.3697951109343925,6.265569075809667e-05
0.3809834838829662,6.037092551687909e-05
0.3925103677678255,5.860886414217868e-05
0.40438600444044565,5.7241639052630864e-05
0.4166209456256632,5.616126186752858e-05
0.42922606229707916,5.528069763239039e-05
0.4422125543361243,5.453573626643308e-05
0.45559196048336176,5.3886518106741184e-05
0.4693761685908721,5.331780800546202e-05
0.48357742618483474,5.2837394152135845e-05
0.4982083513476799,5.247231451402572e-05
0.5132819439294938,5.226297571128258e-05
0.5288115970986266,5.2255601579436026e-05
0.5448111092417707,5.2493788166414065e-05
0.5612946962240882,5.301018941926903e-05
0.5782770040202713,5.381945171611665e-05
0.5957731217277612,5.491341164658163e-05
0.6137985949736976,5.62592636209948e-05
0.632369439727496,5.7800934607421655e-05
0.6515021565313341,5.946336097368986e-05
0.6712137451611946,6.115886272657249e-05
0.6915217197314824,6.2794467485113e-05
0.7124441242566392,6.427893242211659e-05
0.7339995486835922,6.552837458612822e-05
0.7562071454092661,6.646981266613093e-05
0.7790866462978432,6.704245501914759e-05
0.8026583802128976,6.719711421385307e-05
0.8269432910799676,6.689455761396534e-05
0.851962956495622,6.610381320607189e-05
0.8777396068995623,6.480138802751603e-05
0.904296145326781,6.297203643546544e-05
0.9316561677573327,6.061121437434778e-05
0.959843984081809,5.772879834828391e-05
0.9888846397011232,5.4353176469959515e-05
1.0188039377798224,5.0534558405093365e-05
1.0496284621726786,4.634637517516369e-05
1.0813856010449363,4.188395094942083e-05
1.1141035712072147,3.7260155902773214e-05
1.147811443186668,3.259836544294006e-05
1.182539167056687,2.802360872782354e-05
1.218317599048106,2.365315861886699e-05
1.2551785289655366,1.958791774369774e-05
1.2931547084331976,1.5905781908308924e-05
1.3322798799953526,1.2657769897483628e-05
1.3725888070971866,9.867200877285345e-06
1.4141173049727718,7.531695461878343e-06
1.4569022724675795,5.627376379415283e-06
1.5009817248237893,4.114413440127686e-06
1.5463948274575363,2.943011612189813e-06
1.5931819307581239,2.0590542350056506e-06
1.6413846059400925,1.4088315005428874e-06
1.6910456819800161,9.425435125469341e-07
1.7422092836708554,6.165106986869989e-07
1.794920870827656,3.9421308090113615e-07
1.8492272786794375,2.4639633984101514e-07
1.9051767594831799,1.5052824625265966e-07
1.9628190253968414,8.987836319778408e-08
2.022205292649551,5.244727432693951e-08
2.0833883270481772,2.990901882279256e-08
2.1464224908607292,1.6667743545105295e-08
2.2113637911182553,9.076812306278047e-09
2.278269929378132,4.830148322152337e-09
2.3472003529929664,2.511589319606295e-09
2.4182163079306926,1.2761150889791758e-09
2.491380893192751,6.335449072939922e-10
2.5667591168787194,3.073305069715584e-10
2.644417953947241,1.4566993114718608e-10
2.724426405724515,6.746307873853814e-11
2.8068555612132555,3.0527487281963763e-11
2.8917786602566133,1.349714201485562e-11
2.9792711586131375,5.8306379744798956e-12
3.069410795000612,2.461001386951267e-12
3.1622776601683795,1.0149099268833854e-12
