L,0
R,0.8550575624804243
tau,gamma
0.00031622776601683794,7.453881725365183e-15
0.0003257954268059452,1.8074872315756072e-14
0.0003356525629125699,4.282425339469207e-14
0.0003458079325861202,9.913529167287309e-14
0.0003562705590620961,2.2422974479778595e-13
0.00036704973857940124,4.9555015453514e-13
0.00037815504864022377,1.070077110617301e-12
0.0003895963565198278,2.2577711123250766e-12
0.0004013838280338108,4.654652771423926e-12
0.00041352793657061903,9.376556545552879e-12
0.00042603947239735167,1.8456763903791644e-11
0.00043892955224711117,3.550035150019791e-11
0.0004522096291964309,6.672448262825405e-11
0.00046589150284154663,1.2255353685862837e-10
0.000479987329782556,2.1997312171696081e-10
0.0004945096344247876,3.85864219600034e-10
0.0005094713201069679,6.615185030051994e-10
0.0005248856805660765,1.1084540625090418e-09
0.0005407664117490826,1.8154829246862542e-09
0.0005571276239820482,2.906710656746258e-09
0.000573983854507415,4.549775134464408e-09
0.0005913500804006177,6.9631874255528245e-09
0.0006092417318774946,1.0421193365910431e-08
0.0006276747060043198,1.5254241149209482e-08
0.0006466653808226475,2.1843058196397272e-08
0.0006662306299015053,3.0604650119213345e-08
0.0006863878373298735,4.1969333379186714e-08
0.0007071549131627765,5.634920690920526e-08
0.0007285503093346991,7.410012984187281e-08
0.0007505930360544725,9.548103070626744e-08
0.0007733026786962036,1.2061584102129457e-07
0.0007966994152012442,1.4946409907113413e-07
0.000820804034006665,1.8180596097142823e-07
0.0008456379525161752,2.172458374402755e-07
0.0008712232361298838,2.552362830068692e-07
0.0008975826178498154,2.9512053684561427e-07
0.0009247395184786131,3.361889099175037e-07
0.0009527180674293558,3.777417516910377e-07
0.0009815431241649891,4.191505930980874e-07
0.001011240300286428,4.599095199328545e-07
0.00104183598228894,4.996707537790667e-07
0.0010733573550070338,5.382613158347403e-07
0.0011058324257687008,5.756808226603513e-07
0.0011392900492804441,6.120832138539484e-07
0.0011737599532652201,6.477470409240332e-07
0.0012092727648760843,6.830396674810477e-07
0.0012458600379089788,7.183804658372363e-07
0.0012835542808388761,7.542071721345136e-07
0.0013223889857041644,7.90948364005985e-07
0.0013623986578649432,8.290038573095977e-07
0.001403618846661689,8.687338437239927e-07
0.0014460861770014986,9.104568349917213e-07
0.0014898383819000102,9.54455888736164e-07
0.0015349143360078898,1.000992096332239e-06
0.001581354090151678,1.0503238727336113e-06
0.0016291989069197068,1.1027301960532185e-06
0.0016784912973246743,1.1585356271405928e-06
0.0017292750585754684,1.2181347497508286e-06
0.0017815953129918145,1.2820136933464072e-06
0.0018354985480962933,1.3507667436805277e-06
0.0018910326579193667,1.4251068254164795e-06
0.0019482469855541295,1.505869931339107e-06
0.0020071923669985623,1.5940153850968766e-06
0.0020679211763242594,1.6906261729832223e-06
0.0021304873722117787,1.7969167495940168e-06
0.002194946545893935,1.9142608834951917e-06
0.002261355970549636,2.0442625393178265e-06
0.002329774652192188,2.1889162060273702e-06
0.002400263382097231,2.3509560949136366e-06
0.002472884790816916,2.534610269470628e-06
0.0025477034038283333,2.7472232179261856e-06
0.002624785698865596,3.0027168978425545e-06
0.00270420016498654,3.328861966780457e-06
0.0027860173634265454,3.782245012335169e-06
0.0028703099902935036,4.478348628709035e-06
0.0029571529411596582,5.650439139958942e-06
0.003046623377607734,7.761689810879804e-06
0.0031388007957904376,1.1712559987225797e-05
0.0032337670970642605,1.921298853732338e-05
0.003331606660760383,3.342989965954683e-05
0.0034324064191572777,6.0077856364344096e-05
0.0035362559347216467,0.00010919536422691257
0.0036432474796863693,0.0001979376386422075
0.003753476118036091,0.0003548068407628192
0.0038670397899733372,0.0006258091803794235
0.003984039398940235,0.0010830362508696856
0.00410457890127309,0.0018360617047780742
0.004228765398569525,0.003046260109790448
0.004356709232850266,0.004943631879352931
0.004488524084600081,0.007844921336035319
0.004624327073775,0.012170764426363086
0.004764238863865586,0.01845840559646838
0.004908383769108734,0.02736539665134987
0.005056889864943131,0.03965895941852792
0.005209889101806705,0.05618575411631691
0.005367517422377078,0.07781802833056382
0.0055299148823591176,0.10537477303676293
0.005697225774927069,0.13952055402295938
0.005869598758931771,0.1806497070010268
0.006047186990986751,0.22876875329383403
0.006230148261550775,0.28339405183353406
0.0064186451351276215,0.3434835880820755
0.006612845094707664,0.4074203700357602
0.006812920690579615,0.47305969280158705
0.007019049693644721,0.5378439326308349
0.0072314152533695004,0.59897784866431
0.007450206060517447,0.6536466491581661
0.007675616514804332,0.6992506506933114
0.007907846897625966,0.7336262483358125
0.008147103550011928,0.7552242616052613
0.008393599055963468,0.763223409795023
0.008647552431338343,0.7575673025295754
0.008909189318450464,0.7389255732165817
0.00917874218655735,0.7085909887628306
0.009456450538413387,0.6683322919615686
0.00974256112307246,0.6202258969174113
0.01003732815512916,0.5664883141164226
0.010341013540593124,0.5093263895267139
0.010653887109597478,0.45081583780489803
0.0109762268561479,0.39281197111492616
0.01130831918512549,0.33689138996295376
0.01165045916676289,0.28432039925599084
0.012002950798819639,0.23604496968190708
0.01236610727668989,0.19269755852807877
0.012740251271682348,0.1546171969445165
0.01312571521771978,0.12188021510288172
0.01352284160671271,0.09433940642416488
0.01393198329286991,0.07166929113555398
0.01435350380621596,0.05341467177543311
0.014787777675594416,0.039039236937061204
0.015235190761443706,0.027970871645880455
0.015696140598641353,0.019640722172193634
0.016171036749721087,0.01351390360882905
0.016660301168776814,0.009110851800684296
0.01716436857637675,0.006019467171146963
0.017683686845820695,0.003899157134056871
0.018218717401083842,0.0024785140366188033
0.018769935626800606,0.0015486229801496424
0.019337831290652745,0.0009539206600261145
0.01992290897853706,0.0005822193368816149
0.02052568854289939,0.00035508387719352866
0.021146705564633255,0.00021930702791037856
0.021786511828953414,0.00013984153212026696
0.022445675815667348,9.425560104632575e-05
0.023124783204280224,6.858894693573526e-05
0.023824437394381993,5.4387915554578914e-05
0.02454526004177924,4.6667868716596114e-05
0.025287891610847935,4.256453996252975e-05
0.026052991943598055,4.0472605095521684e-05
0.026841240845955423,3.951379449710887e-05
0.027653338691782024,3.921896842734234e-05
0.02849000704517128,3.9343913651492346e-05
0.02935198930157114,3.976576296864788e-05
0.03024005134830484,4.0426398525424896e-05
0.031154982245076148,4.1302372530131e-05
0.032097594925063526,4.2389364457318454e-05
0.0330687269172265,4.3694425573038566e-05
0.03406924109046583,4.523236279145455e-05
0.035100026420298434,4.7024385316384216e-05
0.036161998778728964,4.909810944381348e-05
0.037256101748019084,5.1488520226185696e-05
0.03838330745907778,5.423972196444693e-05
0.039544617455218076,5.740739144756826e-05
0.040741063582046814,6.106185447315268e-05
0.041973708904278643,6.529169540481524e-05
0.043243648650289075,7.02078387827704e-05
0.04455201118524525,7.594818319116098e-05
0.04589995901367928,8.268322262073704e-05
0.04728868981239551,9.062380824365538e-05
0.048719437494628565,0.00010003349481517117
0.05019347330639818,0.00011125006004433899
0.05171210695603525,0.00012472411209261557
0.05327668777788204,0.00014108752753550137
0.05488860593120073,0.0001612709610961184
0.05654929363535618,0.0001866976379841542
0.05826022644236947,0.00021958918685911506
0.06002292454797317,0.0002634264430952482
0.06183895414233406,0.0003236106228335811
0.06370992880164184,0.00040836326480390116
0.06563751092180212,0.0005298810315607029
0.06762341319550604,0.0007057180702566945
0.06966940013398946,0.0009603003459941621
0.07177728963483458,0.0013263840064026327
0.0739489545972056,0.0018461618055679798
0.07618632458595442,0.0025716161546638036
0.07849138754607547,0.0035636429912507556
0.08086619156903166,0.004889463390125243
0.0833128467125217,0.006617936393703835
0.0858335268753062,0.008812613667013067
0.08843047172875704,0.011522738275915703
0.09110598870684694,0.014772855903444976
0.09386245505634813,0.018552207033245317
0.09670231994906024,0.022805497630603477
0.09962810665794483,0.027426880240510286
0.10264241479910112,0.03225890462108427
0.10574792264157308,0.03709774990634423
0.10894738948704122,0.04170523802440959
0.11224365812151421,0.04582705229002506
0.115639657341197,0.04921543237325191
0.11913840455478059,0.05165362521658216
0.12274300846446674,0.05297877593931937
0.12645667182810702,0.053099913736270266
0.1302826943049137,0.052008280017306445
0.13422447538726828,0.04977837481867094
0.1382855174212334,0.0465595513904105
0.14246942871845358,0.04255947751099508
0.14677992676220705,0.03802200663066686
0.1512208415104586,0.033202727742676005
0.15579611879884947,0.028345573919104732
0.16050982384664572,0.023663389684098275
0.16536614486876083,0.01932443475627613
0.17036939679706378,0.015445661927852718
0.17552402511427612,0.012092492716543246
0.18083460980386573,0.009283928261073835
0.18630586941944874,0.007001297466865322
0.191942665277312,0.005198789352487609
0.19775000577578267,0.0038140899201567547
0.20373305084528473,0.0027778404315787772
0.20989711653303306,0.0020211298801252977
0.21624767972643985,0.001480718061077091
0.22279038301943255,0.0011020776677340336
0.22953103972600333,0.0008406047753097511
0.23647563904544633,0.0006614735971947914
0.2436303513838746,0.00053862588934794
0.25100153383673934,0.0004533231559764812
0.25859573583722933,0.00039258781526602414
0.2664197049755641,0.0003477485346465579
0.27448039299435284,0.00031320604814749327
0.28278496196534886,0.00028545983324942986
0.29134079065308366,0.0002623857417153675
0.3001554810710358,0.00024272730294215705
0.3092368652361634,0.00022575349161643553
0.3185930121277967,0.00021103721581656597
0.328232234857076,0.00019831630338195395
0.3381630980533074,0.00018740834732230543
0.34839442547379557,0.00017815985707262755
0.3589353078439152,0.0001704174334121256
0.3697951109343925,0.000164013740870142
0.3809834838829662,0.00015876407703156758
0.3925103677678255,0.000154470816037503
0.40438600444044565,0.00015093349794521882
0.4166209456256632,0.0001479623492377536
0.42922606229707916,0.00014539292001723803
0.4422125543361243,0.00014309952656506878
0.45559196048336176,0.0001410053853259537
0.4693761685908721,0.00013908772844240056
0.48357742618483474,0.0001373767788804412
0.4982083513476799,0.00013594820104992838
0.5132819439294938,0.0001349094859188019
0.5288115970986266,0.00013438160703189983
0.5448111092417707,0.00013447808448776606
0.5612946962240882,0.0001352841707391321
0.5782770040202713,0.00013683907179168066
0.5957731217277612,0.00013912382942571526
0.6137985949736976,0.00014205669661716111
0.632369439727496,0.0001454966435444282
0.6515021565313341,0.00014925425453814694
0.6712137451611946,0.00015310800544729913
0.6915217197314824,0.0001568230318469833
0.7124441242566392,0.000160169217996541
0.7339995486835922,0.00016293582488404213
0.7562071454092661,0.00016494084547760948
0.7790866462978432,0.00016603459994442887
0.8026583802128976,0.00016609845133904052
0.8269432910799676,0.00016504061002697718
0.851962956495622,0.00016279154495553322
0.8777396068995623,0.00015930140084682485
0.904296145326781,0.0001545410620115456
0.9316561677573327,0.00014850729268687054
0.959843984081809,0.00014123102383995954
0.9888846397011232,0.00013278669502005634
1.0188039377798224,0.000123299902502183
1.0496284621726786,0.00011295063456547849
1.0813856010449363,0.00010197010088479398
1.1141035712072147,9.063041666239246e-05
1.147811443186668,7.92278795362925e-05
1.182539167056687,6.806192157419074e-05
1.218317599048106,5.7412715240134967e-05
1.2551785289655366,4.7520669846228905e-05
1.2931547084331976,3.857064867160948e-05
1.3322798799953526,3.06828022401084e-05
1.3725888070971866,2.3910697346230816e-05
1.4141173049727718,1.8246208882625645e-05
1.4569022724675795,1.3629679269230759e-05
1.5009817248237893,9.96329297938906e-06
1.5463948274575363,7.125501805279464e-06
1.5931819307581239,4.984607712531842e-06
1.6413846059400925,3.4101341993541367e-06
1.6910456819800161,2.2812404921024476e-06
1.7422092836708554,1.492018835530668e-06
1.794920870827656,9.53969435258677e-07
1.8492272786794375,5.962278225861411e-07
1.9051767594831799,3.6422906511628515e-07
1.9628190253968414,2.1746720602364633e-07
2.022205292649551,1.2689556248725512e-07
2.0833883270481772,7.236240345936393e-08
2.1464224908607292,4.0325239898375974e-08
2.2113637911182553,2.1959605942462716e-08
2.278269929378132,1.1685414563715102e-08
2.3472003529929664,6.076114627617618e-09
2.4182163079306926,3.0871793404420516e-09
2.491380893192751,1.5326569320228037e-09
2.5667591168787194,7.434803075603315e-10
2.644417953947241,3.523956673067841e-10
2.724426405724515,1.6320150272540934e-10
2.8068555612132555,7.384937603658692e-11
2.8917786602566133,3.2650942266758005e-11
2.9792711586131375,1.4104847901414618e-11
3.069410795000612,5.95336992192519e-12
3.1622776601683795,2.455146442957755e-12
